wavelength(nm)         real         imag
100.00   3.84116197   0.00056225
102.00   3.83878514   0.00059666
104.00   3.83636126   0.00063245
106.00   3.83389034   0.00066964
108.00   3.83137236   0.00070826
110.00   3.82880735   0.00074834
112.00   3.82619529   0.00078990
114.00   3.82353619   0.00083298
116.00   3.82083005   0.00087759
118.00   3.81807686   0.00092376
120.00   3.81527664   0.00097153
122.00   3.81242938   0.00102092
124.00   3.80953509   0.00107195
126.00   3.80659375   0.00112465
128.00   3.80360539   0.00117906
130.00   3.80056999   0.00123519
132.00   3.79748757   0.00129307
134.00   3.79435811   0.00135274
136.00   3.79118162   0.00141421
138.00   3.78795811   0.00147751
140.00   3.78468757   0.00154268
142.00   3.78137001   0.00160974
144.00   3.77800542   0.00167871
146.00   3.77459381   0.00174962
148.00   3.77113519   0.00182250
150.00   3.76762954   0.00189738
152.00   3.76407688   0.00197428
154.00   3.76047720   0.00205323
156.00   3.75683051   0.00213426
158.00   3.75313681   0.00221739
160.00   3.74939609   0.00230265
162.00   3.74560837   0.00239007
164.00   3.74177364   0.00247967
166.00   3.73789191   0.00257149
168.00   3.73396317   0.00266554
170.00   3.72998743   0.00276186
172.00   3.72596469   0.00286047
174.00   3.72189495   0.00296140
176.00   3.71777822   0.00306468
178.00   3.71361449   0.00317033
180.00   3.70940376   0.00327838
182.00   3.70514605   0.00338885
184.00   3.70084135   0.00350178
186.00   3.69648966   0.00361719
188.00   3.69209098   0.00373511
190.00   3.68764532   0.00385556
192.00   3.68315268   0.00397857
194.00   3.67861305   0.00410417
196.00   3.67402645   0.00423239
198.00   3.66939288   0.00436325
200.00   3.66471233   0.00449677
202.00   3.65998481   0.00463300
204.00   3.65521032   0.00477194
206.00   3.65038886   0.00491364
208.00   3.64552044   0.00505811
210.00   3.64060505   0.00520538
212.00   3.63564270   0.00535549
214.00   3.63063340   0.00550845
216.00   3.62557713   0.00566430
218.00   3.62047392   0.00582305
220.00   3.61532375   0.00598475
222.00   3.61012663   0.00614941
224.00   3.60488256   0.00631706
226.00   3.59959155   0.00648773
228.00   3.59425359   0.00666144
230.00   3.58886869   0.00683823
232.00   3.58343686   0.00701811
234.00   3.57795809   0.00720112
236.00   3.57243238   0.00738729
238.00   3.56685974   0.00757663
240.00   3.56124018   0.00776918
242.00   3.55557369   0.00796496
244.00   3.54986027   0.00816400
246.00   3.54409994   0.00836633
248.00   3.53829268   0.00857198
250.00   3.53243851   0.00878096
252.00   3.52653742   0.00899331
254.00   3.52058942   0.00920906
256.00   3.51459452   0.00942822
258.00   3.50855271   0.00965084
260.00   3.50246399   0.00987692
262.00   3.49632838   0.01010652
264.00   3.49014586   0.01033963
266.00   3.48391645   0.01057631
268.00   3.47764015   0.01081656
270.00   3.47131696   0.01106043
272.00   3.46494688   0.01130793
274.00   3.45852992   0.01155909
276.00   3.45206608   0.01181395
278.00   3.44555536   0.01207251
280.00   3.43899776   0.01233483
282.00   3.43239329   0.01260091
284.00   3.42574195   0.01287078
286.00   3.41904374   0.01314448
288.00   3.41229867   0.01342203
290.00   3.40550673   0.01370346
292.00   3.39866794   0.01398879
294.00   3.39178230   0.01427806
296.00   3.38484980   0.01457127
298.00   3.37787045   0.01486848
300.00   3.37084425   0.01516969
302.00   3.36377122   0.01547494
304.00   3.35665134   0.01578426
306.00   3.34948463   0.01609766
308.00   3.34227108   0.01641519
310.00   3.33501070   0.01673685
312.00   3.32770349   0.01706269
314.00   3.32034946   0.01739273
316.00   3.31294861   0.01772700
318.00   3.30550094   0.01806551
320.00   3.29800646   0.01840830
322.00   3.29046517   0.01875540
324.00   3.28287706   0.01910683
326.00   3.27524216   0.01946262
328.00   3.26756045   0.01982279
330.00   3.25983194   0.02018738
332.00   3.25205664   0.02055640
334.00   3.24423455   0.02092989
336.00   3.23636567   0.02130787
338.00   3.22845000   0.02169037
340.00   3.22048756   0.02207742
342.00   3.21247834   0.02246904
344.00   3.20442234   0.02286525
346.00   3.19631958   0.02326610
348.00   3.18817004   0.02367159
350.00   3.17997375   0.02408176
352.00   3.17173069   0.02449664
354.00   3.16344088   0.02491626
356.00   3.15510431   0.02534063
358.00   3.14672100   0.02576979
360.00   3.13829094   0.02620376
362.00   3.12981414   0.02664257
364.00   3.12129060   0.02708624
366.00   3.11272033   0.02753481
368.00   3.10410333   0.02798829
370.00   3.09543960   0.02844673
372.00   3.08672915   0.02891013
374.00   3.07797198   0.02937854
376.00   3.06916810   0.02985197
378.00   3.06031750   0.03033045
380.00   3.05142019   0.03081401
382.00   3.04247619   0.03130268
384.00   3.03348548   0.03179648
386.00   3.02444808   0.03229544
388.00   3.01536398   0.03279958
390.00   3.00623320   0.03330894
392.00   2.99705574   0.03382353
394.00   2.98783159   0.03434339
396.00   2.97856077   0.03486854
398.00   2.96924327   0.03539902
400.00   2.95987911   0.03593483
402.00   2.95046829   0.03647602
404.00   2.94101081   0.03702261
406.00   2.93150667   0.03757462
408.00   2.92195588   0.03813208
410.00   2.91235844   0.03869503
412.00   2.90271436   0.03926347
414.00   2.89302364   0.03983745
416.00   2.88328629   0.04041699
418.00   2.87350230   0.04100211
420.00   2.86367169   0.04159284
422.00   2.85379446   0.04218921
424.00   2.84387062   0.04279124
426.00   2.83390015   0.04339897
428.00   2.82388309   0.04401241
430.00   2.81381941   0.04463160
432.00   2.80370914   0.04525655
434.00   2.79355227   0.04588731
436.00   2.78334881   0.04652388
438.00   2.77309876   0.04716631
440.00   2.76280213   0.04781461
442.00   2.75245893   0.04846882
444.00   2.74206915   0.04912896
446.00   2.73163280   0.04979505
448.00   2.72114989   0.05046712
450.00   2.71062042   0.05114521
452.00   2.70004439   0.05182932
454.00   2.68942181   0.05251951
456.00   2.67875269   0.05321578
458.00   2.66803703   0.05391816
460.00   2.65727483   0.05462669
462.00   2.64646610   0.05534138
464.00   2.63561084   0.05606227
466.00   2.62470906   0.05678938
468.00   2.61376076   0.05752274
470.00   2.60276595   0.05826237
472.00   2.59172464   0.05900830
474.00   2.58063682   0.05976056
476.00   2.56950250   0.06051917
478.00   2.55832169   0.06128416
480.00   2.54709438   0.06205556
482.00   2.53582060   0.06283339
484.00   2.52450034   0.06361767
486.00   2.51313360   0.06440845
488.00   2.50172039   0.06520573
490.00   2.49026073   0.06600956
492.00   2.47875460   0.06681994
494.00   2.46720201   0.06763692
496.00   2.45560298   0.06846052
498.00   2.44395751   0.06929076
500.00   2.43226560   0.07012767
502.00   2.42052725   0.07097128
504.00   2.40874247   0.07182161
506.00   2.39691127   0.07267869
508.00   2.38503366   0.07354254
510.00   2.37310963   0.07441320
512.00   2.36113919   0.07529068
514.00   2.34912235   0.07617502
516.00   2.33705911   0.07706624
518.00   2.32494948   0.07796437
520.00   2.31279347   0.07886943
522.00   2.30059107   0.07978146
524.00   2.28834229   0.08070046
526.00   2.27604715   0.08162648
528.00   2.26370564   0.08255955
530.00   2.25131776   0.08349967
532.00   2.23888354   0.08444689
534.00   2.22640296   0.08540122
536.00   2.21387604   0.08636270
538.00   2.20130278   0.08733135
540.00   2.18868319   0.08830720
542.00   2.17601727   0.08929027
544.00   2.16330503   0.09028059
546.00   2.15054647   0.09127818
548.00   2.13774160   0.09228308
550.00   2.12489043   0.09329530
552.00   2.11199296   0.09431488
554.00   2.09904919   0.09534184
556.00   2.08605913   0.09637621
558.00   2.07302279   0.09741801
560.00   2.05994017   0.09846727
562.00   2.04681128   0.09952402
564.00   2.03363613   0.10058827
566.00   2.02041471   0.10166007
568.00   2.00714704   0.10273943
570.00   1.99383313   0.10382638
572.00   1.98047296   0.10492095
574.00   1.96706657   0.10602316
576.00   1.95361394   0.10713303
578.00   1.94011508   0.10825061
580.00   1.92657001   0.10937590
582.00   1.91297872   0.11050895
584.00   1.89934122   0.11164976
586.00   1.88565752   0.11279838
588.00   1.87192763   0.11395482
590.00   1.85815155   0.11511912
592.00   1.84432928   0.11629129
594.00   1.83046083   0.11747137
596.00   1.81654621   0.11865938
598.00   1.80258543   0.11985534
600.00   1.78857849   0.12105929
602.00   1.77452539   0.12227125
604.00   1.76042614   0.12349124
606.00   1.74628076   0.12471929
608.00   1.73208923   0.12595544
610.00   1.71785158   0.12719969
612.00   1.70356781   0.12845208
614.00   1.68923791   0.12971264
616.00   1.67486191   0.13098140
618.00   1.66043981   0.13225836
620.00   1.64597160   0.13354358
622.00   1.63145730   0.13483706
624.00   1.61689692   0.13613884
626.00   1.60229046   0.13744894
628.00   1.58763792   0.13876739
630.00   1.57293932   0.14009421
632.00   1.55819466   0.14142943
634.00   1.54340394   0.14277308
636.00   1.52856718   0.14412518
638.00   1.51368438   0.14548576
640.00   1.49875554   0.14685485
642.00   1.48378067   0.14823246
644.00   1.46875978   0.14961863
646.00   1.45369288   0.15101338
648.00   1.43857997   0.15241674
650.00   1.42342105   0.15382873
652.00   1.40821614   0.15524939
654.00   1.39296525   0.15667873
656.00   1.37766837   0.15811678
658.00   1.36232551   0.15956357
660.00   1.34693668   0.16101912
662.00   1.33150190   0.16248347
664.00   1.31602115   0.16395662
666.00   1.30049446   0.16543862
668.00   1.28492183   0.16692949
670.00   1.26930326   0.16842925
672.00   1.25363876   0.16993793
674.00   1.23792834   0.17145556
676.00   1.22217200   0.17298216
678.00   1.20636976   0.17451775
680.00   1.19052161   0.17606237
682.00   1.17462757   0.17761603
684.00   1.15868765   0.17917877
686.00   1.14270184   0.18075061
688.00   1.12667016   0.18233158
690.00   1.11059261   0.18392170
692.00   1.09446920   0.18552100
694.00   1.07829994   0.18712950
696.00   1.06208483   0.18874723
698.00   1.04582388   0.19037421
700.00   1.02951710   0.19201048
702.00   1.01316450   0.19365606
704.00   0.99676607   0.19531096
706.00   0.98032184   0.19697523
708.00   0.96383180   0.19864888
710.00   0.94729597   0.20033194
712.00   0.93071435   0.20202444
714.00   0.91408694   0.20372640
716.00   0.89741376   0.20543784
718.00   0.88069482   0.20715880
720.00   0.86393011   0.20888930
722.00   0.84711965   0.21062936
724.00   0.83026344   0.21237902
726.00   0.81336149   0.21413829
728.00   0.79641381   0.21590720
730.00   0.77942041   0.21768578
732.00   0.76238129   0.21947405
734.00   0.74529647   0.22127204
736.00   0.72816593   0.22307978
738.00   0.71098971   0.22489729
740.00   0.69376780   0.22672459
742.00   0.67650020   0.22856171
744.00   0.65918694   0.23040869
746.00   0.64182801   0.23226553
748.00   0.62442342   0.23413228
750.00   0.60697319   0.23600895
752.00   0.58947731   0.23789556
754.00   0.57193579   0.23979216
756.00   0.55434865   0.24169875
758.00   0.53671589   0.24361538
760.00   0.51903752   0.24554205
762.00   0.50131354   0.24747880
764.00   0.48354396   0.24942566
766.00   0.46572880   0.25138264
768.00   0.44786806   0.25334979
770.00   0.42996174   0.25532711
772.00   0.41200985   0.25731463
774.00   0.39401241   0.25931239
776.00   0.37596942   0.26132041
778.00   0.35788088   0.26333870
780.00   0.33974681   0.26536731
782.00   0.32156721   0.26740625
784.00   0.30334209   0.26945555
786.00   0.28507146   0.27151523
788.00   0.26675533   0.27358532
790.00   0.24839370   0.27566585
792.00   0.22998659   0.27775684
794.00   0.21153399   0.27985832
796.00   0.19303592   0.28197031
798.00   0.17449239   0.28409283
800.00   0.15590340   0.28622592
802.00   0.13726897   0.28836960
804.00   0.11858909   0.29052389
806.00   0.09986379   0.29268882
808.00   0.08109306   0.29486442
810.00   0.06227691   0.29705071
812.00   0.04341536   0.29924771
814.00   0.02450840   0.30145545
816.00   0.00555606   0.30367396
818.00  -0.01344167   0.30590326
820.00  -0.03248477   0.30814338
822.00  -0.05157324   0.31039434
824.00  -0.07070707   0.31265616
826.00  -0.08988625   0.31492889
828.00  -0.10911077   0.31721252
830.00  -0.12838063   0.31950711
832.00  -0.14769581   0.32181266
834.00  -0.16705630   0.32412921
836.00  -0.18646211   0.32645678
838.00  -0.20591322   0.32879539
840.00  -0.22540962   0.33114507
842.00  -0.24495130   0.33350585
844.00  -0.26453826   0.33587775
846.00  -0.28417048   0.33826080
848.00  -0.30384797   0.34065502
850.00  -0.32357070   0.34306043
852.00  -0.34333868   0.34547707
854.00  -0.36315188   0.34790495
856.00  -0.38301032   0.35034411
858.00  -0.40291397   0.35279456
860.00  -0.42286282   0.35525634
862.00  -0.44285688   0.35772947
864.00  -0.46289613   0.36021397
866.00  -0.48298055   0.36270987
868.00  -0.50311016   0.36521719
870.00  -0.52328492   0.36773596
872.00  -0.54350484   0.37026621
874.00  -0.56376991   0.37280795
876.00  -0.58408012   0.37536122
878.00  -0.60443546   0.37792604
880.00  -0.62483591   0.38050244
882.00  -0.64528148   0.38309043
884.00  -0.66577216   0.38569005
886.00  -0.68630792   0.38830132
888.00  -0.70688878   0.39092426
890.00  -0.72751471   0.39355891
892.00  -0.74818571   0.39620528
894.00  -0.76890177   0.39886340
896.00  -0.78966288   0.40153330
898.00  -0.81046903   0.40421500
900.00  -0.83132021   0.40690852
902.00  -0.85221642   0.40961390
904.00  -0.87315764   0.41233115
906.00  -0.89414387   0.41506030
908.00  -0.91517509   0.41780138
910.00  -0.93625130   0.42055440
912.00  -0.95737249   0.42331941
914.00  -0.97853865   0.42609641
916.00  -0.99974977   0.42888545
918.00  -1.02100585   0.43168653
920.00  -1.04230686   0.43449969
922.00  -1.06365281   0.43732495
924.00  -1.08504368   0.44016233
926.00  -1.10647947   0.44301187
928.00  -1.12796016   0.44587358
930.00  -1.14948575   0.44874749
932.00  -1.17105623   0.45163363
934.00  -1.19267158   0.45453202
936.00  -1.21433181   0.45744268
938.00  -1.23603689   0.46036565
940.00  -1.25778683   0.46330093
942.00  -1.27958160   0.46624857
944.00  -1.30142121   0.46920859
946.00  -1.32330564   0.47218100
948.00  -1.34523488   0.47516584
950.00  -1.36720892   0.47816313
952.00  -1.38922776   0.48117289
954.00  -1.41129139   0.48419515
956.00  -1.43339979   0.48722994
958.00  -1.45555296   0.49027727
960.00  -1.47775088   0.49333718
962.00  -1.49999355   0.49640969
964.00  -1.52228095   0.49949482
966.00  -1.54461309   0.50259259
968.00  -1.56698994   0.50570304
970.00  -1.58941151   0.50882619
972.00  -1.61187777   0.51196206
974.00  -1.63438872   0.51511067
976.00  -1.65694435   0.51827206
978.00  -1.67954465   0.52144625
980.00  -1.70218961   0.52463325
982.00  -1.72487923   0.52783310
984.00  -1.74761348   0.53104582
986.00  -1.77039237   0.53427144
988.00  -1.79321588   0.53750998
990.00  -1.81608400   0.54076146
992.00  -1.83899672   0.54402591
994.00  -1.86195404   0.54730335
996.00  -1.88495594   0.55059381
998.00  -1.90800241   0.55389732
1000.00  -1.93109344   0.55721389
1002.00  -1.95422903   0.56054356
1004.00  -1.97740916   0.56388634
1006.00  -2.00063383   0.56724226
1008.00  -2.02390302   0.57061135
1010.00  -2.04721672   0.57399363
1012.00  -2.07057493   0.57738912
1014.00  -2.09397763   0.58079786
1016.00  -2.11742482   0.58421986
1018.00  -2.14091648   0.58765515
1020.00  -2.16445260   0.59110375
1022.00  -2.18803318   0.59456568
1024.00  -2.21165820   0.59804099
1026.00  -2.23532765   0.60152967
1028.00  -2.25904153   0.60503177
1030.00  -2.28279983   0.60854731
1032.00  -2.30660252   0.61207630
1034.00  -2.33044961   0.61561878
1036.00  -2.35434108   0.61917477
1038.00  -2.37827693   0.62274429
1040.00  -2.40225714   0.62632737
1042.00  -2.42628170   0.62992404
1044.00  -2.45035061   0.63353430
1046.00  -2.47446384   0.63715821
1048.00  -2.49862140   0.64079576
1050.00  -2.52282327   0.64444700
1052.00  -2.54706944   0.64811194
1054.00  -2.57135990   0.65179061
1056.00  -2.59569465   0.65548303
1058.00  -2.62007366   0.65918923
1060.00  -2.64449693   0.66290923
1062.00  -2.66896446   0.66664306
1064.00  -2.69347622   0.67039074
1066.00  -2.71803221   0.67415229
1068.00  -2.74263242   0.67792774
1070.00  -2.76727684   0.68171712
1072.00  -2.79196546   0.68552044
1074.00  -2.81669826   0.68933774
1076.00  -2.84147524   0.69316903
1078.00  -2.86629638   0.69701434
1080.00  -2.89116168   0.70087369
1082.00  -2.91607113   0.70474712
1084.00  -2.94102471   0.70863463
1086.00  -2.96602241   0.71253627
1088.00  -2.99106423   0.71645205
1090.00  -3.01615015   0.72038199
1092.00  -3.04128016   0.72432612
1094.00  -3.06645425   0.72828446
1096.00  -3.09167241   0.73225705
1098.00  -3.11693463   0.73624389
1100.00  -3.14224090   0.74024502
1102.00  -3.16759121   0.74426047
1104.00  -3.19298555   0.74829024
1106.00  -3.21842391   0.75233438
1108.00  -3.24390627   0.75639290
1110.00  -3.26943262   0.76046582
1112.00  -3.29500296   0.76455318
1114.00  -3.32061728   0.76865499
1116.00  -3.34627555   0.77277128
1118.00  -3.37197778   0.77690207
1120.00  -3.39772395   0.78104739
1122.00  -3.42351405   0.78520727
1124.00  -3.44934807   0.78938171
1126.00  -3.47522599   0.79357076
1128.00  -3.50114782   0.79777443
1130.00  -3.52711353   0.80199275
1132.00  -3.55312311   0.80622573
1134.00  -3.57917656   0.81047342
1136.00  -3.60527387   0.81473582
1138.00  -3.63141501   0.81901296
1140.00  -3.65759999   0.82330487
1142.00  -3.68382879   0.82761158
1144.00  -3.71010139   0.83193310
1146.00  -3.73641780   0.83626945
1148.00  -3.76277799   0.84062067
1150.00  -3.78918195   0.84498678
1152.00  -3.81562968   0.84936779
1154.00  -3.84212117   0.85376374
1156.00  -3.86865639   0.85817465
1158.00  -3.89523535   0.86260054
1160.00  -3.92185802   0.86704143
1162.00  -3.94852441   0.87149736
1164.00  -3.97523449   0.87596834
1166.00  -4.00198826   0.88045439
1168.00  -4.02878570   0.88495555
1170.00  -4.05562681   0.88947183
1172.00  -4.08251156   0.89400326
1174.00  -4.10943996   0.89854986
1176.00  -4.13641199   0.90311166
1178.00  -4.16342763   0.90768867
1180.00  -4.19048688   0.91228094
1182.00  -4.21758973   0.91688846
1184.00  -4.24473616   0.92151128
1186.00  -4.27192616   0.92614941
1188.00  -4.29915972   0.93080289
1190.00  -4.32643683   0.93547172
1192.00  -4.35375748   0.94015594
1194.00  -4.38112166   0.94485557
1196.00  -4.40852935   0.94957063
1198.00  -4.43598054   0.95430114
1200.00  -4.46347522   0.95904714
1202.00  -4.49101339   0.96380864
1204.00  -4.51859502   0.96858567
1206.00  -4.54622011   0.97337825
1208.00  -4.57388864   0.97818640
1210.00  -4.60160061   0.98301015
1212.00  -4.62935600   0.98784952
1214.00  -4.65715480   0.99270454
1216.00  -4.68499699   0.99757523
1218.00  -4.71288258   1.00246161
1220.00  -4.74081154   1.00736370
1222.00  -4.76878386   1.01228153
1224.00  -4.79679953   1.01721513
1226.00  -4.82485854   1.02216451
1228.00  -4.85296088   1.02712970
1230.00  -4.88110654   1.03211073
1232.00  -4.90929550   1.03710761
1234.00  -4.93752775   1.04212037
1236.00  -4.96580328   1.04714903
1238.00  -4.99412208   1.05219362
1240.00  -5.02248414   1.05725416
1242.00  -5.05088944   1.06233068
1244.00  -5.07933798   1.06742319
1246.00  -5.10782973   1.07253172
1248.00  -5.13636470   1.07765629
1250.00  -5.16494286   1.08279693
1252.00  -5.19356420   1.08795367
1254.00  -5.22222872   1.09312651
1256.00  -5.25093640   1.09831549
1258.00  -5.27968723   1.10352064
1260.00  -5.30848119   1.10874196
1262.00  -5.33731828   1.11397949
1264.00  -5.36619848   1.11923326
1266.00  -5.39512178   1.12450327
1268.00  -5.42408817   1.12978956
1270.00  -5.45309764   1.13509216
1272.00  -5.48215017   1.14041107
1274.00  -5.51124575   1.14574633
1276.00  -5.54038437   1.15109796
1278.00  -5.56956601   1.15646599
1280.00  -5.59879068   1.16185042
1282.00  -5.62805834   1.16725130
1284.00  -5.65736900   1.17266864
1286.00  -5.68672263   1.17810246
1288.00  -5.71611923   1.18355280
1290.00  -5.74555878   1.18901966
1292.00  -5.77504128   1.19450308
1294.00  -5.80456670   1.20000308
1296.00  -5.83413504   1.20551967
1298.00  -5.86374629   1.21105289
