wavelength(nm)         real         imag
100.00   3.77743474   0.00117122
102.00   3.77248357   0.00124291
104.00   3.76743440   0.00131746
106.00   3.76228722   0.00139493
108.00   3.75704205   0.00147538
110.00   3.75169887   0.00155887
112.00   3.74625770   0.00164544
114.00   3.74071854   0.00173517
116.00   3.73508138   0.00182810
118.00   3.72934624   0.00192429
120.00   3.72351311   0.00202379
122.00   3.71758200   0.00212667
124.00   3.71155290   0.00223297
126.00   3.70542583   0.00234276
128.00   3.69920078   0.00245609
130.00   3.69287775   0.00257301
132.00   3.68645676   0.00269359
134.00   3.67993780   0.00281788
136.00   3.67332087   0.00294593
138.00   3.66660598   0.00307780
140.00   3.65979314   0.00321355
142.00   3.65288233   0.00335324
144.00   3.64587358   0.00349691
146.00   3.63876687   0.00364463
148.00   3.63156222   0.00379645
150.00   3.62425963   0.00395242
152.00   3.61685909   0.00411262
154.00   3.60936062   0.00427708
156.00   3.60176421   0.00444587
158.00   3.59406987   0.00461904
160.00   3.58627761   0.00479664
162.00   3.57838742   0.00497875
164.00   3.57039931   0.00516540
166.00   3.56231329   0.00535666
168.00   3.55412935   0.00555258
170.00   3.54584750   0.00575322
172.00   3.53746775   0.00595864
174.00   3.52899009   0.00616889
176.00   3.52041454   0.00638402
178.00   3.51174109   0.00660410
180.00   3.50296975   0.00682917
182.00   3.49410052   0.00705930
184.00   3.48513341   0.00729455
186.00   3.47606842   0.00753495
188.00   3.46690555   0.00778059
190.00   3.45764481   0.00803150
192.00   3.44828621   0.00828775
194.00   3.43882974   0.00854939
196.00   3.42927541   0.00881647
198.00   3.41962323   0.00908906
200.00   3.40987320   0.00936721
202.00   3.40002532   0.00965098
204.00   3.39007960   0.00994041
206.00   3.38003604   0.01023558
208.00   3.36989465   0.01053653
210.00   3.35965542   0.01084331
212.00   3.34931838   0.01115600
214.00   3.33888351   0.01147463
216.00   3.32835083   0.01179927
218.00   3.31772034   0.01212998
220.00   3.30699204   0.01246680
222.00   3.29616594   0.01280980
224.00   3.28524204   0.01315904
226.00   3.27422036   0.01351456
228.00   3.26310088   0.01387642
230.00   3.25188362   0.01424468
232.00   3.24056859   0.01461940
234.00   3.22915578   0.01500063
236.00   3.21764521   0.01538843
238.00   3.20603687   0.01578284
240.00   3.19433078   0.01618394
242.00   3.18252693   0.01659178
244.00   3.17062534   0.01700640
246.00   3.15862600   0.01742787
248.00   3.14652893   0.01785625
250.00   3.13433413   0.01829158
252.00   3.12204160   0.01873393
254.00   3.10965135   0.01918335
256.00   3.09716339   0.01963989
258.00   3.08457771   0.02010362
260.00   3.07189434   0.02057458
262.00   3.05911326   0.02105284
264.00   3.04623449   0.02153845
266.00   3.03325804   0.02203147
268.00   3.02018390   0.02253194
270.00   3.00701208   0.02303994
272.00   2.99374260   0.02355550
274.00   2.98037545   0.02407870
276.00   2.96691064   0.02460958
278.00   2.95334819   0.02514821
280.00   2.93968808   0.02569463
282.00   2.92593033   0.02624890
284.00   2.91207495   0.02681108
286.00   2.89812194   0.02738122
288.00   2.88407131   0.02795939
290.00   2.86992306   0.02854563
292.00   2.85567720   0.02914000
294.00   2.84133374   0.02974256
296.00   2.82689268   0.03035336
298.00   2.81235403   0.03097246
300.00   2.79771779   0.03159992
302.00   2.78298397   0.03223579
304.00   2.76815258   0.03288012
306.00   2.75322363   0.03353298
308.00   2.73819712   0.03419441
310.00   2.72307305   0.03486448
312.00   2.70785144   0.03554323
314.00   2.69253229   0.03623073
316.00   2.67711561   0.03692703
318.00   2.66160140   0.03763219
320.00   2.64598967   0.03834626
322.00   2.63028043   0.03906930
324.00   2.61447368   0.03980136
326.00   2.59856944   0.04054250
328.00   2.58256770   0.04129278
330.00   2.56646848   0.04205224
332.00   2.55027179   0.04282095
334.00   2.53397762   0.04359897
336.00   2.51758599   0.04438634
338.00   2.50109690   0.04518313
340.00   2.48451036   0.04598938
342.00   2.46782638   0.04680516
344.00   2.45104497   0.04763052
346.00   2.43416613   0.04846551
348.00   2.41718987   0.04931020
350.00   2.40011620   0.05016463
352.00   2.38294512   0.05102886
354.00   2.36567665   0.05190296
356.00   2.34831078   0.05278696
358.00   2.33084753   0.05368094
360.00   2.31328691   0.05458494
362.00   2.29562893   0.05549902
364.00   2.27787358   0.05642324
366.00   2.26002088   0.05735765
368.00   2.24207084   0.05830230
370.00   2.22402346   0.05925726
372.00   2.20587875   0.06022258
374.00   2.18763673   0.06119831
376.00   2.16929739   0.06218451
378.00   2.15086075   0.06318124
380.00   2.13232681   0.06418854
382.00   2.11369558   0.06520648
384.00   2.09496708   0.06623511
386.00   2.07614130   0.06727449
388.00   2.05721826   0.06832467
390.00   2.03819796   0.06938571
392.00   2.01908042   0.07045766
394.00   1.99986564   0.07154058
396.00   1.98055363   0.07263453
398.00   1.96114440   0.07373955
400.00   1.94163795   0.07485571
402.00   1.92203430   0.07598305
404.00   1.90233345   0.07712165
406.00   1.88253542   0.07827154
408.00   1.86264021   0.07943279
410.00   1.84264782   0.08060545
412.00   1.82255828   0.08178958
414.00   1.80237158   0.08298524
416.00   1.78208774   0.08419247
418.00   1.76170676   0.08541133
420.00   1.74122866   0.08664188
422.00   1.72065344   0.08788418
424.00   1.69998111   0.08913827
426.00   1.67921169   0.09040422
428.00   1.65834517   0.09168208
430.00   1.63738157   0.09297190
432.00   1.61632090   0.09427374
434.00   1.59516317   0.09558766
436.00   1.57390838   0.09691371
438.00   1.55255655   0.09825195
440.00   1.53110768   0.09960243
442.00   1.50956179   0.10096520
444.00   1.48791888   0.10234033
446.00   1.46617897   0.10372786
448.00   1.44434206   0.10512786
450.00   1.42240816   0.10654037
452.00   1.40037728   0.10796546
454.00   1.37824943   0.10940317
456.00   1.35602463   0.11085357
458.00   1.33370288   0.11231670
460.00   1.31128418   0.11379263
462.00   1.28876856   0.11528141
464.00   1.26615601   0.11678309
466.00   1.24344656   0.11829773
468.00   1.22064021   0.11982538
470.00   1.19773696   0.12136610
472.00   1.17473684   0.12291995
474.00   1.15163984   0.12448698
476.00   1.12844599   0.12606724
478.00   1.10515528   0.12766079
480.00   1.08176774   0.12926768
482.00   1.05828336   0.13088797
484.00   1.03470217   0.13252172
486.00   1.01102416   0.13416898
488.00   0.98724936   0.13582980
490.00   0.96337777   0.13750424
492.00   0.93940940   0.13919236
494.00   0.91534426   0.14089420
496.00   0.89118237   0.14260983
498.00   0.86692373   0.14433930
500.00   0.84256835   0.14608267
502.00   0.81811624   0.14783998
504.00   0.79356743   0.14961130
506.00   0.76892190   0.15139668
508.00   0.74417969   0.15319617
510.00   0.71934079   0.15500983
512.00   0.69440522   0.15683772
514.00   0.66937298   0.15867988
516.00   0.64424410   0.16053638
518.00   0.61901858   0.16240727
520.00   0.59369643   0.16429260
522.00   0.56827766   0.16619243
524.00   0.54276229   0.16810681
526.00   0.51715032   0.17003580
528.00   0.49144177   0.17197946
530.00   0.46563664   0.17393783
532.00   0.43973496   0.17591097
534.00   0.41373672   0.17789895
536.00   0.38764194   0.17990180
538.00   0.36145064   0.18191959
540.00   0.33516282   0.18395237
542.00   0.30877849   0.18600020
544.00   0.28229767   0.18806313
546.00   0.25572037   0.19014122
548.00   0.22904660   0.19223451
550.00   0.20227637   0.19434308
552.00   0.17540970   0.19646696
554.00   0.14844658   0.19860621
556.00   0.12138705   0.20076090
558.00   0.09423110   0.20293107
560.00   0.06697875   0.20511678
562.00   0.03963002   0.20731808
564.00   0.01218490   0.20953503
566.00  -0.01535657   0.21176768
568.00  -0.04299440   0.21401609
570.00  -0.07072857   0.21628031
572.00  -0.09855907   0.21856040
574.00  -0.12648589   0.22085641
576.00  -0.15450901   0.22316839
578.00  -0.18262842   0.22549641
580.00  -0.21084411   0.22784051
582.00  -0.23915607   0.23020074
584.00  -0.26756428   0.23257717
586.00  -0.29606874   0.23496985
588.00  -0.32466942   0.23737883
590.00  -0.35336633   0.23980417
592.00  -0.38215944   0.24224592
594.00  -0.41104875   0.24470414
596.00  -0.44003423   0.24717887
598.00  -0.46911588   0.24967018
600.00  -0.49829369   0.25217812
602.00  -0.52756764   0.25470275
604.00  -0.55693773   0.25724411
606.00  -0.58640392   0.25980226
608.00  -0.61596623   0.26237726
610.00  -0.64562462   0.26496917
612.00  -0.67537910   0.26757802
614.00  -0.70522964   0.27020389
616.00  -0.73517623   0.27284682
618.00  -0.76521886   0.27550687
620.00  -0.79535752   0.27818409
622.00  -0.82559220   0.28087854
624.00  -0.85592287   0.28359027
626.00  -0.88634953   0.28631934
628.00  -0.91687217   0.28906579
630.00  -0.94749077   0.29182969
632.00  -0.97820531   0.29461109
634.00  -1.00901579   0.29741004
636.00  -1.03992220   0.30022659
638.00  -1.07092451   0.30306081
640.00  -1.10202271   0.30591274
642.00  -1.13321679   0.30878244
644.00  -1.16450675   0.31166997
646.00  -1.19589255   0.31457537
648.00  -1.22737420   0.31749870
650.00  -1.25895167   0.32044002
652.00  -1.29062496   0.32339938
654.00  -1.32239404   0.32637683
656.00  -1.35425891   0.32937243
658.00  -1.38621956   0.33238623
660.00  -1.41827596   0.33541829
662.00  -1.45042810   0.33846866
664.00  -1.48267598   0.34153739
666.00  -1.51501957   0.34462453
668.00  -1.54745886   0.34773016
670.00  -1.57999384   0.35085430
672.00  -1.61262449   0.35399703
674.00  -1.64535080   0.35715839
676.00  -1.67817276   0.36033844
678.00  -1.71109035   0.36353723
680.00  -1.74410356   0.36675481
682.00  -1.77721237   0.36999125
684.00  -1.81041677   0.37324658
686.00  -1.84371675   0.37652088
688.00  -1.87711228   0.37981418
690.00  -1.91060336   0.38312656
692.00  -1.94418997   0.38645805
694.00  -1.97787209   0.38980871
696.00  -2.01164972   0.39317860
698.00  -2.04552283   0.39656776
700.00  -2.07949142   0.39997627
702.00  -2.11355546   0.40340415
704.00  -2.14771495   0.40685149
706.00  -2.18196987   0.41031831
708.00  -2.21632020   0.41380469
710.00  -2.25076592   0.41731066
712.00  -2.28530704   0.42083630
714.00  -2.31994352   0.42438164
716.00  -2.35467535   0.42794675
718.00  -2.38950252   0.43153167
720.00  -2.42442502   0.43513646
722.00  -2.45944282   0.43876118
724.00  -2.49455592   0.44240588
726.00  -2.52976430   0.44607061
728.00  -2.56506794   0.44975542
730.00  -2.60046683   0.45346037
732.00  -2.63596095   0.45718552
734.00  -2.67155029   0.46093091
736.00  -2.70723482   0.46469660
738.00  -2.74301455   0.46848264
740.00  -2.77888945   0.47228908
742.00  -2.81485950   0.47611599
744.00  -2.85092469   0.47996341
746.00  -2.88708501   0.48383140
748.00  -2.92334043   0.48772001
750.00  -2.95969095   0.49162929
752.00  -2.99613655   0.49555930
754.00  -3.03267721   0.49951008
756.00  -3.06931291   0.50348170
758.00  -3.10604365   0.50747421
760.00  -3.14286939   0.51148766
762.00  -3.17979014   0.51552210
764.00  -3.21680587   0.51957759
766.00  -3.25391657   0.52365418
768.00  -3.29112221   0.52775192
770.00  -3.32842279   0.53187087
772.00  -3.36581829   0.53601108
774.00  -3.40330869   0.54017260
776.00  -3.44089398   0.54435549
778.00  -3.47857414   0.54855980
780.00  -3.51634915   0.55278558
782.00  -3.55421900   0.55703288
784.00  -3.59218367   0.56130177
786.00  -3.63024314   0.56559229
788.00  -3.66839740   0.56990449
790.00  -3.70664644   0.57423843
792.00  -3.74499023   0.57859417
794.00  -3.78342876   0.58297174
796.00  -3.82196201   0.58737122
798.00  -3.86058996   0.59179264
800.00  -3.89931261   0.59623607
802.00  -3.93812993   0.60070156
804.00  -3.97704190   0.60518916
806.00  -4.01604851   0.60969892
808.00  -4.05514974   0.61423089
810.00  -4.09434558   0.61878513
812.00  -4.13363601   0.62336170
814.00  -4.17302101   0.62796064
816.00  -4.21250056   0.63258200
818.00  -4.25207466   0.63722585
820.00  -4.29174327   0.64189223
822.00  -4.33150638   0.64658120
824.00  -4.37136398   0.65129280
826.00  -4.41131605   0.65602710
828.00  -4.45136258   0.66078414
830.00  -4.49150353   0.66556398
832.00  -4.53173891   0.67036666
834.00  -4.57206868   0.67519226
836.00  -4.61249284   0.68004080
838.00  -4.65301136   0.68491236
840.00  -4.69362423   0.68980697
842.00  -4.73433143   0.69472470
844.00  -4.77513295   0.69966560
846.00  -4.81602876   0.70462971
848.00  -4.85701885   0.70961710
850.00  -4.89810319   0.71462781
852.00  -4.93928178   0.71966189
854.00  -4.98055460   0.72471941
856.00  -5.02192162   0.72980041
858.00  -5.06338283   0.73490494
860.00  -5.10493822   0.74003306
862.00  -5.14658776   0.74518482
864.00  -5.18833143   0.75036027
866.00  -5.23016922   0.75555947
868.00  -5.27210111   0.76078246
870.00  -5.31412709   0.76602931
872.00  -5.35624712   0.77130005
874.00  -5.39846121   0.77659475
876.00  -5.44076932   0.78191346
878.00  -5.48317144   0.78725622
880.00  -5.52566755   0.79262310
882.00  -5.56825763   0.79801414
884.00  -5.61094167   0.80342940
886.00  -5.65371965   0.80886892
888.00  -5.69659154   0.81433277
890.00  -5.73955734   0.81982099
892.00  -5.78261702   0.82533363
894.00  -5.82577055   0.83087075
896.00  -5.86901794   0.83643241
898.00  -5.91235915   0.84201864
900.00  -5.95579416   0.84762951
902.00  -5.99932297   0.85326506
904.00  -6.04294554   0.85892536
906.00  -6.08666187   0.86461044
908.00  -6.13047193   0.87032037
910.00  -6.17437570   0.87605519
912.00  -6.21837317   0.88181496
914.00  -6.26246431   0.88759973
916.00  -6.30664911   0.89340955
918.00  -6.35092755   0.89924448
920.00  -6.39529961   0.90510456
922.00  -6.43976527   0.91098984
924.00  -6.48432451   0.91690039
926.00  -6.52897731   0.92283624
928.00  -6.57372366   0.92879746
930.00  -6.61856352   0.93478410
932.00  -6.66349690   0.94079620
934.00  -6.70852376   0.94683382
936.00  -6.75364408   0.95289701
938.00  -6.79885786   0.95898583
940.00  -6.84416506   0.96510032
942.00  -6.88956567   0.97124053
944.00  -6.93505966   0.97740653
946.00  -6.98064703   0.98359835
948.00  -7.02632775   0.98981606
950.00  -7.07210179   0.99605970
952.00  -7.11796915   1.00232932
954.00  -7.16392980   1.00862498
956.00  -7.20998372   1.01494673
958.00  -7.25613089   1.02129462
960.00  -7.30237129   1.02766870
962.00  -7.34870491   1.03406903
964.00  -7.39513172   1.04049565
966.00  -7.44165170   1.04694861
968.00  -7.48826483   1.05342798
970.00  -7.53497110   1.05993379
972.00  -7.58177048   1.06646611
974.00  -7.62866295   1.07302498
976.00  -7.67564849   1.07961046
978.00  -7.72272709   1.08622259
980.00  -7.76989872   1.09286142
982.00  -7.81716336   1.09952702
984.00  -7.86452100   1.10621943
986.00  -7.91197161   1.11293870
988.00  -7.95951517   1.11968488
990.00  -8.00715166   1.12645803
992.00  -8.05488106   1.13325819
994.00  -8.10270335   1.14008542
996.00  -8.15061852   1.14693977
998.00  -8.19862653   1.15382128
1000.00  -8.24672737   1.16073002
1002.00  -8.29492103   1.16766603
1004.00  -8.34320747   1.17462937
1006.00  -8.39158667   1.18162008
1008.00  -8.44005863   1.18863822
1010.00  -8.48862331   1.19568383
1012.00  -8.53728070   1.20275697
1014.00  -8.58603078   1.20985769
1016.00  -8.63487351   1.21698604
1018.00  -8.68380889   1.22414208
1020.00  -8.73283690   1.23132584
1022.00  -8.78195751   1.23853739
1024.00  -8.83117069   1.24577678
1026.00  -8.88047644   1.25304405
1028.00  -8.92987473   1.26033926
1030.00  -8.97936553   1.26766245
1032.00  -9.02894883   1.27501369
1034.00  -9.07862461   1.28239301
1036.00  -9.12839284   1.28980048
1038.00  -9.17825350   1.29723614
1040.00  -9.22820658   1.30470004
1042.00  -9.27825205   1.31219223
1044.00  -9.32838989   1.31971277
1046.00  -9.37862007   1.32726170
1048.00  -9.42894258   1.33483908
1050.00  -9.47935740   1.34244496
1052.00  -9.52986450   1.35007938
1054.00  -9.58046387   1.35774240
1056.00  -9.63115548   1.36543407
1058.00  -9.68193930   1.37315444
1060.00  -9.73281532   1.38090356
1062.00  -9.78378352   1.38868149
1064.00  -9.83484388   1.39648826
1066.00  -9.88599637   1.40432394
1068.00  -9.93724097   1.41218856
1070.00  -9.98857765   1.42008220
1072.00 -10.04000641   1.42800488
1074.00 -10.09152721   1.43595667
1076.00 -10.14314004   1.44393762
1078.00 -10.19484486   1.45194777
1080.00 -10.24664167   1.45998718
1082.00 -10.29853044   1.46805590
1084.00 -10.35051114   1.47615397
1086.00 -10.40258376   1.48428145
1088.00 -10.45474826   1.49243838
1090.00 -10.50700464   1.50062483
1092.00 -10.55935286   1.50884083
1094.00 -10.61179291   1.51708645
1096.00 -10.66432477   1.52536172
1098.00 -10.71694840   1.53366670
1100.00 -10.76966379   1.54200144
1102.00 -10.82247092   1.55036599
1104.00 -10.87536977   1.55876040
1106.00 -10.92836030   1.56718473
1108.00 -10.98144250   1.57563901
1110.00 -11.03461635   1.58412331
1112.00 -11.08788182   1.59263766
1114.00 -11.14123890   1.60118213
1116.00 -11.19468755   1.60975676
1118.00 -11.24822776   1.61836159
1120.00 -11.30185950   1.62699670
1122.00 -11.35558275   1.63566211
1124.00 -11.40939749   1.64435788
1126.00 -11.46330370   1.65308407
1128.00 -11.51730135   1.66184071
1130.00 -11.57139041   1.67062787
1132.00 -11.62557088   1.67944559
1134.00 -11.67984272   1.68829392
1136.00 -11.73420590   1.69717292
1138.00 -11.78866042   1.70608262
1140.00 -11.84320624   1.71502308
1142.00 -11.89784334   1.72399436
1144.00 -11.95257170   1.73299650
1146.00 -12.00739129   1.74202954
1148.00 -12.06230210   1.75109355
1150.00 -12.11730410   1.76018856
1152.00 -12.17239726   1.76931464
1154.00 -12.22758156   1.77847183
1156.00 -12.28285698   1.78766017
1158.00 -12.33822350   1.79687972
1160.00 -12.39368109   1.80613053
1162.00 -12.44922973   1.81541265
1164.00 -12.50486939   1.82472613
1166.00 -12.56060006   1.83407101
1168.00 -12.61642170   1.84344735
1170.00 -12.67233430   1.85285520
1172.00 -12.72833783   1.86229460
1174.00 -12.78443227   1.87176561
1176.00 -12.84061759   1.88126827
1178.00 -12.89689377   1.89080264
1180.00 -12.95326079   1.90036876
1182.00 -13.00971862   1.90996668
1184.00 -13.06626724   1.91959646
1186.00 -13.12290662   1.92925813
1188.00 -13.17963675   1.93895176
1190.00 -13.23645759   1.94867739
1192.00 -13.29336912   1.95843506
1194.00 -13.35037133   1.96822484
1196.00 -13.40746417   1.97804676
1198.00 -13.46464764   1.98790089
1200.00 -13.52192171   1.99778725
1202.00 -13.57928635   2.00770592
1204.00 -13.63674154   2.01765692
1206.00 -13.69428725   2.02764032
1208.00 -13.75192346   2.03765617
1210.00 -13.80965015   2.04770451
1212.00 -13.86746729   2.05778538
1214.00 -13.92537485   2.06789885
1216.00 -13.98337282   2.07804496
1218.00 -14.04146117   2.08822375
1220.00 -14.09963987   2.09843529
1222.00 -14.15790890   2.10867960
1224.00 -14.21626824   2.11895676
1226.00 -14.27471785   2.12926679
1228.00 -14.33325772   2.13960976
1230.00 -14.39188783   2.14998572
1232.00 -14.45060813   2.16039470
1234.00 -14.50941863   2.17083676
1236.00 -14.56831927   2.18131195
1238.00 -14.62731005   2.19182032
1240.00 -14.68639094   2.20236191
1242.00 -14.74556191   2.21293677
1244.00 -14.80482294   2.22354496
1246.00 -14.86417400   2.23418652
1248.00 -14.92361507   2.24486150
1250.00 -14.98314612   2.25556995
1252.00 -15.04276713   2.26631192
1254.00 -15.10247808   2.27708745
1256.00 -15.16227893   2.28789660
1258.00 -15.22216966   2.29873941
1260.00 -15.28215025   2.30961594
1262.00 -15.34222067   2.32052622
1264.00 -15.40238091   2.33147031
1266.00 -15.46263092   2.34244826
1268.00 -15.52297069   2.35346011
1270.00 -15.58340019   2.36450592
1272.00 -15.64391940   2.37558573
1274.00 -15.70452828   2.38669959
1276.00 -15.76522683   2.39784755
1278.00 -15.82601500   2.40902966
1280.00 -15.88689278   2.42024596
1282.00 -15.94786013   2.43149651
1284.00 -16.00891704   2.44278134
1286.00 -16.07006348   2.45410052
1288.00 -16.13129942   2.46545409
1290.00 -16.19262483   2.47684209
1292.00 -16.25403970   2.48826458
1294.00 -16.31554399   2.49972160
1296.00 -16.37713768   2.51121320
1298.00 -16.43882074   2.52273943
